Absorption cross sections for methylketene measured by
Chong and Kistiakowsky, The Journal of Physical Chemistry: 68(7), 1793-1797 (1964).
as digitized from Figure IX-E-14, p. 1164
in the book of Calvert et al. (2011):
The Mechanisms of Atmospheric Oxidation of the Oxygenates,
Oxford University Press, 2011.

λ / nm	σ / 1E-20 cm-2
280.26	0.606887
281.658	0.631652
283.237	0.673781
284.812	0.70713
286.218	0.749455
287.62	0.783001
289.026	0.825326
290.432	0.867652
291.837	0.909977
293.602	0.978249
295.008	1.02058
296.245	1.07188
297.477	1.1144
298.545	1.17468
299.786	1.23476
300.853	1.29504
301.748	1.35552
302.819	1.42458
303.718	1.49384
304.612	1.55431
305.507	1.61479
306.236	1.69302
307.304	1.7533
308.198	1.81378
308.927	1.89201
309.822	1.95249
310.551	2.03072
311.619	2.091
312.344	2.16046
313.242	2.22971
313.968	2.29917
314.862	2.35964
315.761	2.4289
316.659	2.49816
317.557	2.56741
318.283	2.63687
319.177	2.69734
320.076	2.7666
320.974	2.83586
321.869	2.89633
322.598	2.97457
323.492	3.03504
324.56	3.09532
325.289	3.17356
326.184	3.23403
327.078	3.29451
327.981	3.37255
328.875	3.43302
329.6	3.50248
330.499	3.57174
331.566	3.63201
332.461	3.69249
333.19	3.77073
334.258	3.83101
334.983	3.90046
337.13	4.04736
338.198	4.10764
339.092	4.16811
339.814	4.22879
341.05	4.28009
342.291	4.34017
343.355	4.39167
344.765	4.44278
346.001	4.49408
347.234	4.5366
348.813	4.57873
350.388	4.61208
351.951	4.61909
353.687	4.6259
355.242	4.61535
356.97	4.6046
358.512	4.56771
360.055	4.53081
361.243	4.47675
362.608	4.43128
363.796	4.37722
364.807	4.31458
365.991	4.25174
367.006	4.19787
367.84	4.12665
369.024	4.06381
369.857	3.99258
370.695	3.93014
371.532	3.86769
372.362	3.78769
373.2	3.72524
373.86	3.65421
374.693	3.58299
375.354	3.51196
376.187	3.44073
376.848	3.3697
377.681	3.29848
378.342	3.22745
379.175	3.15622
380.013	3.09378
380.673	3.02275
381.68	2.95132
382.167	2.88049
383.174	2.80907
383.834	2.73804
384.668	2.66681
385.328	2.59579
386.162	2.52456
386.999	2.46211
387.659	2.39109
388.316	2.31128
389.153	2.24883
389.81	2.16902
390.647	2.10658
391.13	2.02696
391.968	1.96452
392.624	1.88471
393.115	1.82266
393.772	1.74285
394.436	1.6806
395.092	1.60079
395.753	1.52976
396.586	1.45854
397.073	1.3877
397.73	1.30789
398.394	1.24565
399.05	1.16584
399.884	1.09461
400.532	0.997242
401.193	0.926213
402.03	0.863767
402.686	0.783958
403.508	0.686392
404.502	0.588629
405.163	0.5176
405.996	0.446374
406.653	0.366565
407.317	0.304316
407.804	0.233484
408.63	0.144698
409.463	0.0734723
